Tiempo (ms),Height a - b
0,9.8
60000,9.6
120000,9.4
180000,9.3
240000,9.1
300000,8.9
360000,8.7
420000,8.6
480000,8.5
540000,8.4
600000,8.3
660000,8.2
720000,8.1
780000,8.0
840000,7.9
900000,7.8
960000,7.7
1020000,7.6
1080000,7.6
1140000,7.5
1200000,7.4
